 freq mag phase
 1.00000000e+00 -5.15500767e-03 -5.47343293e-05 
 1.12201845e+00 -5.15500767e-03 -6.14129276e-05 
 1.25892541e+00 -5.15500767e-03 -6.89064381e-05 
 1.41253754e+00 -5.15500767e-03 -7.73142952e-05 
 1.58489319e+00 -5.15500768e-03 -8.67480660e-05 
 1.77827941e+00 -5.15500768e-03 -9.73329309e-05 
 1.99526231e+00 -5.15500768e-03 -1.09209345e-04 
 2.23872114e+00 -5.15500769e-03 -1.22534900e-04 
 2.51188643e+00 -5.15500769e-03 -1.37486419e-04 
 2.81838293e+00 -5.15500770e-03 -1.54262300e-04 
 3.16227766e+00 -5.15500770e-03 -1.73085147e-04 
 3.54813389e+00 -5.15500771e-03 -1.94204729e-04 
 3.98107171e+00 -5.15500773e-03 -2.17901290e-04 
 4.46683592e+00 -5.15500774e-03 -2.44489268e-04 
 5.01187234e+00 -5.15500776e-03 -2.74321471e-04 
 5.62341325e+00 -5.15500778e-03 -3.07793753e-04 
 6.30957344e+00 -5.15500781e-03 -3.45350271e-04 
 7.07945784e+00 -5.15500785e-03 -3.87489377e-04 
 7.94328235e+00 -5.15500790e-03 -4.34770232e-04 
 8.91250938e+00 -5.15500796e-03 -4.87820224e-04 
 1.00000000e+01 -5.15500803e-03 -5.47343293e-04 
 1.12201845e+01 -5.15500813e-03 -6.14129276e-04 
 1.25892541e+01 -5.15500825e-03 -6.89064381e-04 
 1.41253754e+01 -5.15500840e-03 -7.73142952e-04 
 1.58489319e+01 -5.15500858e-03 -8.67480660e-04 
 1.77827941e+01 -5.15500882e-03 -9.73329309e-04 
 1.99526231e+01 -5.15500912e-03 -1.09209345e-03 
 2.23872114e+01 -5.15500950e-03 -1.22534900e-03 
 2.51188643e+01 -5.15500997e-03 -1.37486419e-03 
 2.81838293e+01 -5.15501057e-03 -1.54262300e-03 
 3.16227766e+01 -5.15501132e-03 -1.73085147e-03 
 3.54813389e+01 -5.15501226e-03 -1.94204729e-03 
 3.98107171e+01 -5.15501345e-03 -2.17901290e-03 
 4.46683592e+01 -5.15501495e-03 -2.44489268e-03 
 5.01187234e+01 -5.15501684e-03 -2.74321471e-03 
 5.62341325e+01 -5.15501921e-03 -3.07793753e-03 
 6.30957344e+01 -5.15502220e-03 -3.45350271e-03 
 7.07945784e+01 -5.15502597e-03 -3.87489377e-03 
 7.94328235e+01 -5.15503071e-03 -4.34770231e-03 
 8.91250938e+01 -5.15503667e-03 -4.87820223e-03 
 1.00000000e+02 -5.15504418e-03 -5.47343292e-03 
 1.12201845e+02 -5.15505363e-03 -6.14129274e-03 
 1.25892541e+02 -5.15506554e-03 -6.89064378e-03 
 1.41253754e+02 -5.15508052e-03 -7.73142948e-03 
 1.58489319e+02 -5.15509938e-03 -8.67480654e-03 
 1.77827941e+02 -5.15512313e-03 -9.73329301e-03 
 1.99526231e+02 -5.15515303e-03 -1.09209343e-02 
 2.23872114e+02 -5.15519066e-03 -1.22534898e-02 
 2.51188643e+02 -5.15523805e-03 -1.37486417e-02 
 2.81838293e+02 -5.15529770e-03 -1.54262296e-02 
 3.16227766e+02 -5.15537279e-03 -1.73085142e-02 
 3.54813389e+02 -5.15546733e-03 -1.94204722e-02 
 3.98107171e+02 -5.15558635e-03 -2.17901281e-02 
 4.46683592e+02 -5.15573619e-03 -2.44489255e-02 
 5.01187234e+02 -5.15592482e-03 -2.74321453e-02 
 5.62341325e+02 -5.15616229e-03 -3.07793727e-02 
 6.30957344e+02 -5.15646125e-03 -3.45350234e-02 
 7.07945784e+02 -5.15683763e-03 -3.87489325e-02 
 7.94328235e+02 -5.15731145e-03 -4.34770158e-02 
 8.91250938e+02 -5.15790796e-03 -4.87820120e-02 
 1.00000000e+03 -5.15865891e-03 -5.47343146e-02 
 1.12201845e+03 -5.15960431e-03 -6.14129068e-02 
 1.25892541e+03 -5.16079450e-03 -6.89064088e-02 
 1.41253754e+03 -5.16229286e-03 -7.73142537e-02 
 1.58489319e+03 -5.16417918e-03 -8.67480074e-02 
 1.77827941e+03 -5.16655391e-03 -9.73328482e-02 
 1.99526231e+03 -5.16954352e-03 -1.09209228e-01 
 2.23872114e+03 -5.17330721e-03 -1.22534735e-01 
 2.51188643e+03 -5.17804542e-03 -1.37486186e-01 
 2.81838293e+03 -5.18401046e-03 -1.54261970e-01 
 3.16227766e+03 -5.19151999e-03 -1.73084682e-01 
 3.54813389e+03 -5.20097390e-03 -1.94204072e-01 
 3.98107171e+03 -5.21287565e-03 -2.17900362e-01 
 4.46683592e+03 -5.22785902e-03 -2.44487958e-01 
 5.01187234e+03 -5.24672188e-03 -2.74319620e-01 
 5.62341325e+03 -5.27046871e-03 -3.07791138e-01 
 6.30957344e+03 -5.30036401e-03 -3.45346578e-01 
 7.07945784e+03 -5.33799967e-03 -3.87484160e-01 
 7.94328235e+03 -5.38537969e-03 -4.34762863e-01 
 8.91250938e+03 -5.44502687e-03 -4.87809815e-01 
 1.00000000e+04 -5.52011706e-03 -5.47328591e-01 
 1.12201845e+04 -5.61464817e-03 -6.14108508e-01 
 1.25892541e+04 -5.73365286e-03 -6.89035047e-01 
 1.41253754e+04 -5.88346626e-03 -7.73101516e-01 
 1.58489319e+04 -6.07206283e-03 -8.67422132e-01 
 1.77827941e+04 -6.30948021e-03 -9.73246640e-01 
 1.99526231e+04 -6.60835256e-03 -1.09197668e+00 
 2.23872114e+04 -6.98458137e-03 -1.22518407e+00 
 2.51188643e+04 -7.45817913e-03 -1.37463124e+00 
 2.81838293e+04 -8.05433007e-03 -1.54229396e+00 
 3.16227766e+04 -8.80472351e-03 -1.73038675e+00 
 3.54813389e+04 -9.74922888e-03 -1.94139094e+00 
 3.98107171e+04 -1.09380038e-02 -2.17808593e+00 
 4.46683592e+04 -1.24341153e-02 -2.44358357e+00 
 5.01187234e+04 -1.43168767e-02 -2.74136602e+00 
 5.62341325e+04 -1.66859796e-02 -3.07532704e+00 
 6.30957344e+04 -1.96666643e-02 -3.44981681e+00 
 7.07945784e+04 -2.34162273e-02 -3.86969000e+00 
 7.94328235e+04 -2.81320559e-02 -4.34035658e+00 
 8.91250938e+04 -3.40616719e-02 -4.86783460e+00 
 1.00000000e+05 -4.15151418e-02 -5.45880334e+00 
 1.12201845e+05 -5.08803876e-02 -6.12065464e+00 
 1.25892541e+05 -6.26419378e-02 -6.86153908e+00 
 1.41253754e+05 -7.74037860e-02 -7.69040189e+00 
 1.58489319e+05 -9.59169158e-02 -8.61700191e+00 
 1.77827941e+05 -1.19112103e-01 -9.65190386e+00 
 1.99526231e+05 -1.48138375e-01 -1.08064311e+01 
 2.23872114e+05 -1.84407070e-01 -1.20925626e+01 
 2.51188643e+05 -2.29640918e-01 -1.35227519e+01 
 2.81838293e+05 -2.85926328e-01 -1.51096457e+01 
 3.16227766e+05 -3.55765604e-01 -1.68656706e+01 
 3.54813389e+05 -4.42123530e-01 -1.88024651e+01 
 3.98107171e+05 -5.48460053e-01 -2.09301320e+01 
 4.46683592e+05 -6.78737669e-01 -2.32563098e+01 
 5.01187234e+05 -8.37389478e-01 -2.57850847e+01 
 5.62341325e+05 -1.02923265e+00 -2.85158137e+01 
 6.30957344e+05 -1.25931404e+00 -3.14419826e+01 
 7.07945784e+05 -1.53268171e+00 -3.45502833e+01 
 7.94328235e+05 -1.85408867e+00 -3.78201365e+01 
 8.91250938e+05 -2.22765305e+00 -4.12238829e+01 
 1.00000000e+06 -2.65651669e+00 -4.47277951e+01 
 1.12201845e+06 -3.14255679e+00 -4.82939243e+01 
 1.25892541e+06 -3.68620437e+00 -5.18826113e+01 
 1.41253754e+06 -4.28640701e+00 -5.54553222e+01 
 1.58489319e+06 -4.94074430e+00 -5.89773863e+01 
 1.77827941e+06 -5.64567273e+00 -6.24202374e+01 
 1.99526231e+06 -6.39685303e+00 -6.57628993e+01 
 2.23872114e+06 -7.18950412e+00 -6.89926334e+01 
 2.51188643e+06 -8.01873444e+00 -7.21048402e+01 
 2.81838293e+06 -8.87981734e+00 -7.51024127e+01 
 3.16227766e+06 -9.76839613e+00 -7.79947723e+01 
 3.54813389e+06 -1.06806198e+01 -8.07968013e+01 
 3.98107171e+06 -1.16132210e+01 -8.35278283e+01 
 4.46683592e+06 -1.25635509e+01 -8.62107683e+01 
 5.01187234e+06 -1.35295890e+01 -8.88714655e+01 
 5.62341325e+06 -1.45099396e+01 -9.15382568e+01 
 6.30957344e+06 -1.55038278e+01 -9.42417553e+01 
 7.07945784e+06 -1.65111034e+01 -9.70148560e+01 
 7.94328235e+06 -1.75322582e+01 -9.98929892e+01 
 8.91250938e+06 -1.85684667e+01 -1.02914700e+02 
 1.00000000e+07 -1.96216659e+01 -1.06122729e+02 
 1.12201845e+07 -2.06947238e+01 -1.09565891e+02 
 1.25892541e+07 -2.17918152e+01 -1.13302126e+02 
 1.41253754e+07 -2.29192642e+01 -1.17402692e+02 
 1.58489319e+07 -2.40872557e+01 -1.21955743e+02 
 1.77827941e+07 -2.53126722e+01 -1.27063992e+02 
 1.99526231e+07 -2.66223911e+01 -1.32828524e+02 
 2.23872114e+07 -2.80550633e+01 -1.39317236e+02 
 2.51188643e+07 -2.96599258e+01 -1.46532004e+02 
 2.81838293e+07 -3.14944404e+01 -1.54390514e+02 
 3.16227766e+07 -3.36237263e+01 -1.62714730e+02 
 3.54813389e+07 -3.61212434e+01 -1.71207424e+02 
 3.98107171e+07 -3.90690715e+01 -1.79423423e+02 
 4.46683592e+07 -4.25624964e+01 -1.86754509e+02 
 5.01187234e+07 -4.67343743e+01 -1.92401076e+02 
 5.62341325e+07 -5.18371547e+01 -1.95162082e+02 
 6.30957344e+07 -5.85272854e+01 -1.92124783e+02 
 7.07945784e+07 -6.89103357e+01 -1.64631186e+02 
 7.94328235e+07 -6.91684691e+01 -6.23147411e+01 
 8.91250938e+07 -6.38325848e+01 -3.89843664e+01 
 1.00000000e+08 -6.13093687e+01 -2.93817777e+01 
 1.12201845e+08 -5.97467405e+01 -2.26296732e+01 
 1.25892541e+08 -5.86047469e+01 -1.74908800e+01 
 1.41253754e+08 -5.77110003e+01 -1.36500002e+01 
 1.58489319e+08 -5.70011437e+01 -1.08422537e+01 
 1.77827941e+08 -5.64401570e+01 -8.80356214e+00 
 1.99526231e+08 -5.60007223e+01 -7.30876760e+00 
 2.23872114e+08 -5.56589807e+01 -6.18780612e+00 
 2.51188643e+08 -5.53943792e+01 -5.32156940e+00 
 2.81838293e+08 -5.51898718e+01 -4.63035706e+00 
 3.16227766e+08 -5.50317793e+01 -4.06217431e+00 
 3.54813389e+08 -5.49093796e+01 -3.58342124e+00 
 3.98107171e+08 -5.48143931e+01 -3.17227723e+00 
 4.46683592e+08 -5.47404810e+01 -2.81430036e+00 
 5.01187234e+08 -5.46828075e+01 -2.49962177e+00 
 5.62341325e+08 -5.46376849e+01 -2.22120741e+00 
 6.30957344e+08 -5.46022956e+01 -1.97380105e+00 
 7.07945784e+08 -5.45744800e+01 -1.75328870e+00 
 7.94328235e+08 -5.45525761e+01 -1.55631741e+00 
 8.91250938e+08 -5.45353000e+01 -1.38006537e+00 
 1.00000000e+09 -5.45216556e+01 -1.22210099e+00 
